ENVI ASCII Plot File [Wed Jan 07 23:16:58 2026]
Column 1: Wavelength
Column 2: Reflectance (EMIT_L2A_RFL_001_20240623T082158_2417506_019.nc) (667,1104)~~2##255,0,0
   381.005585   0.022772
   388.409210   0.023907
   395.815826   0.025040
   403.225403   0.026171
   410.638000   0.027464
   418.053589   0.028976
   425.472137   0.030661
   432.892700   0.032466
   440.317261   0.034152
   447.742798   0.035791
   455.170349   0.037285
   462.598877   0.038595
   470.030396   0.039752
   477.462921   0.040818
   484.897430   0.041216
   492.332916   0.041599
   499.771423   0.043196
   507.209900   0.045454
   514.650391   0.048639
   522.090881   0.052398
   529.533325   0.056580
   536.976807   0.059388
   544.421265   0.060885
   551.866699   0.063143
   559.314209   0.064005
   566.761597   0.062568
   574.209045   0.061403
   581.658508   0.060725
   589.107971   0.059792
   596.558350   0.060253
   604.009827   0.060821
   611.462219   0.060418
   618.914612   0.060169
   626.368042   0.059837
   633.821472   0.060719
   641.275879   0.060521
   648.730286   0.059743
   656.185730   0.059377
   663.641113   0.058362
   671.097534   0.057799
   678.553894   0.059196
   686.010315   0.060967
   693.467712   0.068965
   700.925110   0.082640
   708.383545   0.099462
   715.840942   0.116841
   723.299316   0.137458
   730.758728   0.155441
   738.217102   0.169832
   745.676514   0.181180
   753.135925   0.185929
   760.596313   0.188721
   768.055725   0.191656
   775.516113   0.193972
   782.977539   0.195808
   790.437927   0.197471
   797.899353   0.199119
   805.361755   0.200674
   812.823181   0.201827
   820.284607   0.203159
   827.745972   0.204513
   835.207397   0.205861
   842.669861   0.207281
   850.131287   0.208555
   857.593689   0.209795
   865.055115   0.210983
   872.517578   0.212104
   879.980042   0.213084
   887.441467   0.213984
   894.903931   0.214373
   902.366394   0.214927
   909.828857   0.215527
   917.291321   0.216068
   924.753784   0.216461
   932.216248   0.214999
   939.678772   0.213658
   947.140259   0.212648
   954.602722   0.210586
   962.064270   0.208667
   969.526794   0.208608
   976.988281   0.209065
   984.449829   0.210265
   991.911377   0.211967
   999.372864   0.214635
  1006.834412   0.217553
  1014.294983   0.220426
  1021.756592   0.223393
  1029.217163   0.226248
  1036.677734   0.228957
  1044.138306   0.231448
  1051.598877   0.233665
  1059.059570   0.235604
  1066.520142   0.237204
  1073.979736   0.238600
  1081.440430   0.239665
  1088.900024   0.240351
  1096.359741   0.240522
  1103.818359   0.240300
  1111.278076   0.239675
  1118.736816   0.237284
  1126.196411   0.233513
  1133.655151   0.228794
  1141.112915   0.222798
  1148.571655   0.215233
  1156.030396   0.210999
  1163.488159   0.209651
  1170.945923   0.209083
  1178.403687   0.208548
  1185.861572   0.207990
  1193.318359   0.207931
  1200.776123   0.208579
  1208.233032   0.210186
  1215.689819   0.212761
  1223.146729   0.216000
  1230.603638   0.219307
  1238.059570   0.222343
  1245.515381   0.224938
  1252.972412   0.227106
  1260.428345   0.228815
  1267.883301   0.230101
  1275.339233   0.231134
  1282.794189   0.231670
  1290.250244   0.231428
  1297.705200   0.230295
  1305.160278   0.228121
  1312.614380   0.224869
  1320.068481   0.220643
  1327.522461  -0.010000
  1334.975586  -0.010000
  1342.428711  -0.010000
  1349.881836  -0.010000
  1357.335083  -0.010000
  1364.787231  -0.010000
  1372.238403  -0.010000
  1379.690674  -0.010000
  1387.141846  -0.010000
  1394.593140  -0.010000
  1402.043335  -0.010000
  1409.493652  -0.010000
  1416.943970  -0.010000
  1424.393311  -0.010000
  1431.842651  -0.010000
  1439.291992   0.107093
  1446.740356   0.107693
  1454.188843   0.108689
  1461.637207   0.109842
  1469.084717   0.108428
  1476.532104   0.111881
  1483.979614   0.113865
  1491.426147   0.117547
  1498.872681   0.120301
  1506.319214   0.123919
  1513.764893   0.127107
  1521.210449   0.129564
  1528.655029   0.132309
  1536.100708   0.135054
  1543.545410   0.138772
  1550.989136   0.140775
  1558.432861   0.143547
  1565.876587   0.144655
  1573.319336   0.145644
  1580.762085   0.148437
  1588.204956   0.151667
  1595.646729   0.154270
  1603.088623   0.155704
  1610.529541   0.158893
  1617.970459   0.162653
  1625.410400   0.164646
  1632.851318   0.166944
  1640.290283   0.168396
  1647.730347   0.168997
  1655.169434   0.168450
  1662.607422   0.167340
  1670.045532   0.167173
  1677.483643   0.165431
  1684.920898   0.164021
  1692.358032   0.160957
  1699.795166   0.158652
  1707.231445   0.154869
  1714.666748   0.152985
  1722.103027   0.150080
  1729.538330   0.149328
  1736.972656   0.150295
  1744.407104   0.150909
  1751.841431   0.149519
  1759.274902   0.148733
  1766.708374   0.146970
  1774.141846  -0.010000
  1781.574341  -0.010000
  1789.006958  -0.010000
  1796.438477  -0.010000
  1803.870117  -0.010000
  1811.300781  -0.010000
  1818.731445  -0.010000
  1826.161133  -0.010000
  1833.590942  -0.010000
  1841.020630  -0.010000
  1848.449463  -0.010000
  1855.877319  -0.010000
  1863.305176  -0.010000
  1870.733032  -0.010000
  1878.160034  -0.010000
  1885.586914  -0.010000
  1893.012939  -0.010000
  1900.438965  -0.010000
  1907.864014  -0.010000
  1915.289185  -0.010000
  1922.713257  -0.010000
  1930.137451  -0.010000
  1937.560669  -0.010000
  1944.983887  -0.010000
  1952.407104  -0.010000
  1959.829468  -0.010000
  1967.251831   0.092553
  1974.673218   0.094373
  1982.094604   0.096187
  1989.515015   0.097533
  1996.935547   0.098493
  2004.354980   0.100267
  2011.774536   0.101191
  2019.193115   0.101360
  2026.611816   0.100681
  2034.030396   0.099668
  2041.447144   0.098476
  2048.864990   0.097341
  2056.280762   0.096353
  2063.696533   0.095417
  2071.112305   0.093632
  2078.527344   0.092835
  2085.942139   0.091841
  2093.356201   0.091012
  2100.769043   0.091158
  2108.182129   0.090940
  2115.594238   0.091949
  2123.006348   0.093246
  2130.417480   0.094458
  2137.828857   0.095092
  2145.239014   0.094314
  2152.648193   0.096471
  2160.057617   0.096725
  2167.467041   0.098285
  2174.875488   0.099573
  2182.282959   0.100206
  2189.690430   0.101429
  2197.096924   0.101694
  2204.503418   0.102423
  2211.909180   0.103476
  2219.314697   0.102883
  2226.719482   0.102167
  2234.123291   0.100781
  2241.526855   0.096819
  2248.929688   0.093093
  2256.332764   0.088429
  2263.734619   0.084904
  2271.136475   0.081274
  2278.537598   0.079529
  2285.938721   0.078719
  2293.338623   0.076375
  2300.737793   0.075264
  2308.135986   0.073858
  2315.534180   0.072337
  2322.932617   0.074350
  2330.329834   0.072637
  2337.726318   0.070157
  2345.121582   0.070034
  2352.517090   0.069335
  2359.912598   0.070496
  2367.307129   0.070167
  2374.700684   0.070071
  2382.093506   0.070154
  2389.486084   0.069966
  2396.877930   0.069490
  2404.269531   0.067787
  2411.660400   0.065831
  2419.051270   0.068618
  2426.440186   0.064078
  2433.830322   0.061635
  2441.218262   0.060668
  2448.606445   0.060092
  2455.994385   0.056626
  2463.381592   0.051682
  2470.767822   0.049657
  2478.153076   0.047895
  2485.538574   0.049169
  2492.923828   0.046855
