ENVI ASCII Plot File [Wed Jan 07 23:04:29 2026]
Column 1: Wavelength
Column 2: Reflectance (EMIT_L2A_RFL_001_20240623T082158_2417506_019.nc) (727,159)~~2##255,0,0
   381.005585   0.183842
   388.409210   0.197533
   395.815826   0.210995
   403.225403   0.218586
   410.638000   0.230130
   418.053589   0.239947
   425.472137   0.247014
   432.892700   0.253884
   440.317261   0.258985
   447.742798   0.265584
   455.170349   0.269556
   462.598877   0.273116
   470.030396   0.275588
   477.462921   0.279212
   484.897430   0.283224
   492.332916   0.285220
   499.771423   0.289683
   507.209900   0.293966
   514.650391   0.296636
   522.090881   0.297577
   529.533325   0.300590
   536.976807   0.303026
   544.421265   0.304708
   551.866699   0.307864
   559.314209   0.312154
   566.761597   0.311581
   574.209045   0.313900
   581.658508   0.313351
   589.107971   0.313646
   596.558350   0.316128
   604.009827   0.316470
   611.462219   0.316421
   618.914612   0.318145
   626.368042   0.316772
   633.821472   0.318038
   641.275879   0.319826
   648.730286   0.319229
   656.185730   0.319952
   663.641113   0.319384
   671.097534   0.324465
   678.553894   0.322968
   686.010315   0.323137
   693.467712   0.322611
   700.925110   0.325365
   708.383545   0.326185
   715.840942   0.327148
   723.299316   0.327504
   730.758728   0.326799
   738.217102   0.327975
   745.676514   0.327476
   753.135925   0.328346
   760.596313   0.329101
   768.055725   0.329439
   775.516113   0.330597
   782.977539   0.330917
   790.437927   0.331116
   797.899353   0.331046
   805.361755   0.330779
   812.823181   0.330442
   820.284607   0.330074
   827.745972   0.329556
   835.207397   0.329068
   842.669861   0.328565
   850.131287   0.327967
   857.593689   0.327801
   865.055115   0.327141
   872.517578   0.326712
   879.980042   0.326200
   887.441467   0.325963
   894.903931   0.325383
   902.366394   0.325389
   909.828857   0.325089
   917.291321   0.325086
   924.753784   0.324815
   932.216248   0.324396
   939.678772   0.324601
   947.140259   0.324694
   954.602722   0.324912
   962.064270   0.325211
   969.526794   0.325631
   976.988281   0.326048
   984.449829   0.324059
   991.911377   0.324382
   999.372864   0.325160
  1006.834412   0.325819
  1014.294983   0.326436
  1021.756592   0.327210
  1029.217163   0.327827
  1036.677734   0.328504
  1044.138306   0.329064
  1051.598877   0.329539
  1059.059570   0.330137
  1066.520142   0.330758
  1073.979736   0.331498
  1081.440430   0.332399
  1088.900024   0.333187
  1096.359741   0.333682
  1103.818359   0.333932
  1111.278076   0.333837
  1118.736816   0.333481
  1126.196411   0.333118
  1133.655151   0.332946
  1141.112915   0.332329
  1148.571655   0.331402
  1156.030396   0.330527
  1163.488159   0.329851
  1170.945923   0.329495
  1178.403687   0.329036
  1185.861572   0.328704
  1193.318359   0.328605
  1200.776123   0.328692
  1208.233032   0.328913
  1215.689819   0.329490
  1223.146729   0.330314
  1230.603638   0.331091
  1238.059570   0.331915
  1245.515381   0.332311
  1252.972412   0.332493
  1260.428345   0.332706
  1267.883301   0.332884
  1275.339233   0.333000
  1282.794189   0.333145
  1290.250244   0.333281
  1297.705200   0.333288
  1305.160278   0.332998
  1312.614380   0.332400
  1320.068481   0.331428
  1327.522461  -0.010000
  1334.975586  -0.010000
  1342.428711  -0.010000
  1349.881836  -0.010000
  1357.335083  -0.010000
  1364.787231  -0.010000
  1372.238403  -0.010000
  1379.690674  -0.010000
  1387.141846  -0.010000
  1394.593140  -0.010000
  1402.043335  -0.010000
  1409.493652  -0.010000
  1416.943970  -0.010000
  1424.393311  -0.010000
  1431.842651  -0.010000
  1439.291992   0.199039
  1446.740356   0.195342
  1454.188843   0.199073
  1461.637207   0.206154
  1469.084717   0.206564
  1476.532104   0.209080
  1483.979614   0.214201
  1491.426147   0.222142
  1498.872681   0.229075
  1506.319214   0.236531
  1513.764893   0.242516
  1521.210449   0.249838
  1528.655029   0.253670
  1536.100708   0.259314
  1543.545410   0.263506
  1550.989136   0.269778
  1558.432861   0.275333
  1565.876587   0.277904
  1573.319336   0.278620
  1580.762085   0.282893
  1588.204956   0.286768
  1595.646729   0.290743
  1603.088623   0.291136
  1610.529541   0.292498
  1617.970459   0.296308
  1625.410400   0.298975
  1632.851318   0.299294
  1640.290283   0.299860
  1647.730347   0.300883
  1655.169434   0.302159
  1662.607422   0.302960
  1670.045532   0.302921
  1677.483643   0.302953
  1684.920898   0.301840
  1692.358032   0.300787
  1699.795166   0.298993
  1707.231445   0.295826
  1714.666748   0.292283
  1722.103027   0.289056
  1729.538330   0.283693
  1736.972656   0.278992
  1744.407104   0.274441
  1751.841431   0.271040
  1759.274902   0.270124
  1766.708374   0.266324
  1774.141846  -0.010000
  1781.574341  -0.010000
  1789.006958  -0.010000
  1796.438477  -0.010000
  1803.870117  -0.010000
  1811.300781  -0.010000
  1818.731445  -0.010000
  1826.161133  -0.010000
  1833.590942  -0.010000
  1841.020630  -0.010000
  1848.449463  -0.010000
  1855.877319  -0.010000
  1863.305176  -0.010000
  1870.733032  -0.010000
  1878.160034  -0.010000
  1885.586914  -0.010000
  1893.012939  -0.010000
  1900.438965  -0.010000
  1907.864014  -0.010000
  1915.289185  -0.010000
  1922.713257  -0.010000
  1930.137451  -0.010000
  1937.560669  -0.010000
  1944.983887  -0.010000
  1952.407104  -0.010000
  1959.829468  -0.010000
  1967.251831   0.103744
  1974.673218   0.107624
  1982.094604   0.111399
  1989.515015   0.115212
  1996.935547   0.119005
  2004.354980   0.124710
  2011.774536   0.130780
  2019.193115   0.136649
  2026.611816   0.140960
  2034.030396   0.145133
  2041.447144   0.148489
  2048.864990   0.151408
  2056.280762   0.153313
  2063.696533   0.154794
  2071.112305   0.163215
  2078.527344   0.165927
  2085.942139   0.168737
  2093.356201   0.171357
  2100.769043   0.172210
  2108.182129   0.173791
  2115.594238   0.175786
  2123.006348   0.178321
  2130.417480   0.179236
  2137.828857   0.180545
  2145.239014   0.181358
  2152.648193   0.180884
  2160.057617   0.180274
  2167.467041   0.180044
  2174.875488   0.178593
  2182.282959   0.178228
  2189.690430   0.178237
  2197.096924   0.176485
  2204.503418   0.175317
  2211.909180   0.174246
  2219.314697   0.173800
  2226.719482   0.174318
  2234.123291   0.175780
  2241.526855   0.174441
  2248.929688   0.171735
  2256.332764   0.169938
  2263.734619   0.168336
  2271.136475   0.167040
  2278.537598   0.164990
  2285.938721   0.163261
  2293.338623   0.160626
  2300.737793   0.155350
  2308.135986   0.154625
  2315.534180   0.153486
  2322.932617   0.148007
  2330.329834   0.147207
  2337.726318   0.143311
  2345.121582   0.141160
  2352.517090   0.137927
  2359.912598   0.137577
  2367.307129   0.133947
  2374.700684   0.129057
  2382.093506   0.126508
  2389.486084   0.123946
  2396.877930   0.120090
  2404.269531   0.115925
  2411.660400   0.115853
  2419.051270   0.114623
  2426.440186   0.108327
  2433.830322   0.107094
  2441.218262   0.104075
  2448.606445   0.102793
  2455.994385   0.093600
  2463.381592   0.094282
  2470.767822   0.096224
  2478.153076   0.094145
  2485.538574   0.087127
  2492.923828   0.080643
